* Exported with UsyTrace, available at https://usyless.uk/trace
* Freq(Hz)	SPL(dB)
20.000000	63.333333
20.290907	63.333333
20.586045	63.330969
20.885476	63.313473
21.189262	63.295724
21.497467	63.281527
21.810155	63.269178
22.127391	63.256650
22.449241	63.243921
22.775773	63.230879
23.107054	63.217648
23.443154	63.204224
23.784142	63.191766
24.130091	63.179388
24.481071	63.166829
24.837156	63.154045
25.198421	63.140972
25.564940	63.127709
25.936791	63.114253
26.314050	63.102000
26.696797	63.089592
27.085111	63.077004
27.479073	63.064527
27.878765	63.052212
28.284271	63.039718
28.695675	63.027042
29.113064	63.014044
29.536523	63.000848
29.966142	62.987460
30.402009	62.974279
30.844217	62.961143
31.292856	62.947816
31.748021	62.934743
32.209807	62.922454
32.678309	62.909986
33.153626	62.897337
33.635857	62.884388
34.125101	62.871220
34.621462	62.857861
35.125043	62.844992
35.635949	62.832674
36.154286	62.820176
36.680162	62.807496
37.213687	62.794492
37.754973	62.781293
38.304131	62.767901
38.861278	62.755236
39.426528	62.742888
40.000000	62.730360
40.581813	62.717632
41.172089	62.704590
41.770951	62.691360
42.378524	62.677936
42.994934	62.664837
43.620309	62.651666
44.254781	62.638303
44.898482	62.625457
45.551545	62.613135
46.214108	62.600634
46.886308	62.587951
47.568285	62.574940
48.260181	62.561737
48.962142	62.548342
49.674312	62.535701
50.396842	62.523349
51.129881	62.510818
51.873582	62.498199
52.628101	62.485940
53.393594	62.473502
54.170222	62.460884
54.958146	62.447990
55.757531	62.434855
56.568542	62.421528
57.391351	62.408207
58.226127	62.395131
59.073046	62.381864
59.932283	62.368407
60.804018	62.356174
61.688433	62.343762
62.585712	62.331171
63.496042	62.318702
64.419613	62.306384
65.356618	62.293886
66.307252	62.281207
67.271713	62.268203
68.250203	62.255005
69.242925	62.241614
70.250086	62.228440
71.271897	62.215301
72.308571	62.201970
73.360323	62.188658
74.427374	62.175578
75.509945	62.162308
76.608262	62.148873
77.722555	62.136637
78.853056	62.124222
80.000000	62.111627
81.163627	62.098776
82.344179	62.085665
83.541903	62.072363
84.757048	62.059131
85.989867	62.046865
87.240619	62.034421
88.509563	62.021796
89.796964	62.008889
91.103091	61.995746
92.428216	61.982412
93.772615	61.969384
95.136569	61.957089
96.520362	61.944614
97.924283	61.931959
99.348625	61.918997
100.793684	61.905823
102.259762	61.892457
103.747164	61.879632
105.256202	61.867307
106.787188	61.854803
108.340444	61.842117
109.916292	61.829100
111.515061	61.815894
113.137085	61.802495
114.782702	61.789875
116.452255	61.777521
118.146092	61.764986
119.864566	61.752375
121.608036	61.740112
123.376866	61.727672
125.171424	61.715050
126.992084	61.702151
128.839227	61.689012
130.713236	61.675682
132.614504	61.662369
134.543426	61.649290
136.500406	61.636020
138.485850	61.622583
140.500173	61.610347
142.543795	61.597933
144.617142	61.585338
146.720647	61.572488
148.854748	61.559377
151.019890	61.546075
153.216525	61.533280
155.445111	61.523410
157.706112	61.513397
160.000000	61.503238
162.327254	61.492932
164.688358	61.488248
167.083805	61.484636
169.514095	61.480972
171.979734	61.477254
174.481237	61.473482
177.019125	61.469655
179.593928	61.465773
182.206182	61.461834
184.856431	61.457838
187.545230	61.453784
190.273138	61.449670
193.040725	61.449167
195.848567	61.453235
198.697250	61.457363
201.587368	61.461551
204.519524	61.465800
207.494329	61.470111
210.512403	61.474484
213.574377	61.478921
216.680888	61.483423
219.832584	61.487990
223.030122	61.495373
226.274170	61.509339
229.565404	61.523509
232.904509	61.537957
236.292183	61.552920
239.729132	61.568101
243.216073	61.584532
246.753732	61.603690
250.342848	61.623148
253.984168	61.644170
257.678453	61.665496
261.426473	61.688771
265.229008	61.712234
269.086853	61.733275
273.000811	61.754641
276.971700	61.778032
281.000346	61.801669
285.087590	61.825105
289.234284	61.848702
293.441294	61.872184
297.709496	61.894751
302.039780	61.915895
306.433050	61.936451
310.890221	61.955624
315.412224	61.975032
320.000000	61.994128
324.654507	62.013502
329.376716	62.028558
334.167610	62.042624
339.028190	62.056894
343.959469	62.063756
348.962474	62.067224
354.038251	62.070741
359.187855	62.074310
364.412363	62.077930
369.712863	62.081603
375.090460	62.085330
380.546277	62.089111
386.081450	62.092947
391.697134	62.096838
397.394500	62.100787
403.174736	62.104792
409.039048	62.102683
414.988657	62.099721
421.024807	62.096717
427.148753	62.093668
433.361775	62.090576
439.665167	62.087438
446.060244	62.084255
452.548340	62.081026
459.130807	62.077749
465.809019	62.074425
472.584367	62.071053
479.458265	62.067631
486.432146	62.064160
493.507464	62.059562
500.685695	62.050961
507.968337	62.042236
515.356906	62.033383
522.852945	62.024402
530.458016	62.013271
538.173706	61.995748
546.001623	61.977970
553.943399	61.960418
562.000691	61.942764
570.175180	61.924052
578.468569	61.902952
586.882588	61.880587
595.418991	61.854159
604.079560	61.827696
612.866100	61.801137
621.780442	61.766838
630.824447	61.731557
640.000000	61.696245
649.309014	61.660904
658.753431	61.625582
668.335221	61.590335
678.056380	61.550236
687.918938	61.507879
697.924949	61.469838
708.076501	61.428040
718.375711	61.380804
728.824726	61.338444
739.425726	61.296084
750.180921	61.256780
761.092554	61.218097
772.162900	61.168997
783.394268	61.126634
794.789000	61.084269
806.349472	61.041904
818.078095	60.999538
829.977315	60.957172
842.049613	60.915853
854.297507	60.880540
866.723550	60.864603
879.330334	60.850514
892.120489	60.836221
905.096680	60.842546
918.261614	60.854216
931.618037	60.866055
945.168733	60.878702
958.916529	60.899740
972.864291	60.921104
987.014928	60.956343
1001.371391	61.005081
1015.936673	61.059830
1030.713812	61.130422
1045.705890	61.201010
1060.916032	61.271655
1076.347412	61.342209
1092.003245	61.417501
1107.886798	61.512646
1124.001383	61.597867
1140.350359	61.683088
1156.937137	61.768311
1173.765175	61.853536
1190.837983	61.938761
1208.159120	62.027225
1225.732199	62.111202
1243.560885	62.195181
1261.648894	62.279667
1280.000000	62.364877
1298.618029	62.450088
1317.506863	62.549927
1336.670442	62.620513
1356.112761	62.720385
1375.837875	62.804900
1395.849898	62.888860
1416.153002	62.972823
1436.751422	63.056787
1457.649452	63.146450
1478.851452	63.224722
1500.361842	63.308692
1522.185107	63.402099
1544.325799	63.487317
1566.788535	63.582535
1589.577999	63.666502
1612.698944	63.772432
1636.156190	63.878301
1659.954630	63.984215
1684.099226	64.090107
1708.595013	64.196002
1733.447100	64.301921
1758.660669	64.407798
1784.240977	64.513720
1810.193360	64.619601
1836.523229	64.725505
1863.236074	64.853329
1890.337467	64.962369
1917.833058	65.087086
1945.728583	65.214906
1974.029857	65.364649
2002.742782	65.502540
2031.873347	65.642236
2061.427625	65.794569
2091.411780	65.941751
2121.832065	66.091530
2152.694823	66.254520
2184.006490	66.422459
2215.773596	66.584666
2248.002765	66.734408
2280.700718	66.884194
2313.874274	67.050361
2347.530351	67.183696
2381.675966	67.342377
2416.318240	67.505153
2451.464399	67.634409
2487.121769	67.802346
2523.297789	67.954414
2560.000000	68.094356
2597.236057	68.232005
2635.013726	68.359831
2673.340883	68.487659
2712.225522	68.615489
2751.675750	68.743321
2791.699796	68.871155
2832.306004	68.955131
2873.502844	69.037764
2915.298905	69.108332
2957.702904	69.143739
3000.723683	69.163765
3044.370214	69.142706
3088.651599	69.119941
3133.577071	69.077225
3179.155999	69.024314
3225.397888	68.951414
3272.312380	68.867452
3319.909260	68.761557
3368.198452	68.655663
3417.190027	68.527836
3466.894200	68.378899
3517.321337	68.228317
3568.481954	68.100484
3620.386720	67.950723
3673.046457	67.800953
3726.472148	67.670784
3780.674934	67.523381
3835.666117	67.378770
3891.457165	67.223858
3948.059713	67.086755
4005.485564	66.924326
4063.746693	66.794724
4122.855250	66.626785
4182.823560	66.458852
4243.664130	66.303371
4305.389646	66.153613
4368.012981	65.998892
4431.547192	65.830944
4496.005531	65.663008
4561.401437	65.532635
4627.748549	65.382885
4695.060701	65.246917
4763.351932	65.122832
4832.636481	64.977474
4902.928797	64.849644
4974.243539	64.743729
5046.595577	64.615907
5120.000000	64.510002
5194.472115	64.404115
5270.027452	64.320146
5346.681766	64.214224
5424.451043	64.113179
5503.351500	64.024369
5583.399591	63.940392
5664.612008	63.842913
5747.005687	63.772268
5830.597810	63.701714
5915.405808	63.633423
6001.447367	63.583717
6088.740429	63.544599
6177.303198	63.514323
6267.154142	63.491599
6358.311998	63.470333
6450.795775	63.450680
6544.624761	63.431397
6639.818520	63.413526
6736.396904	63.397323
6834.380053	63.380884
6933.788400	63.365611
7034.642675	63.350521
7136.963909	63.335212
7240.773439	63.318011
7346.092914	63.300327
7452.944296	63.279155
7561.349867	63.252656
7671.332234	63.223439
7782.914330	63.191689
7896.119426	63.156333
8010.971128	63.121073
8127.493386	63.085810
8245.710500	63.040600
8365.647121	62.987620
8487.328260	62.908788
8610.779292	62.824821
8736.025961	62.718891
8863.094385	62.591070
8992.011061	62.470336
9122.802874	62.335426
9255.497097	62.207601
9390.121402	62.057823
9526.703863	61.929984
9665.272962	61.762212
9805.857594	61.608564
9948.487077	61.436870
10093.191154	61.287116
10240.000000	61.134312
10388.944230	60.966366
10540.054903	60.798435
10693.363532	60.630501
10848.902086	60.462562
11006.703001	60.300828
11166.799182	60.129130
11329.224017	59.958730
11494.011375	59.807705
11661.195620	59.657936
11830.811616	59.486253
12002.894734	59.330841
12177.480858	59.162894
12354.606395	58.994954
12534.308283	58.827022
12716.623996	58.659086
12901.591551	58.499972
13089.249521	58.328275
13279.637040	58.156577
13472.793808	58.006846
13668.760107	57.857070
13867.576801	57.695308
14069.285350	57.527367
14273.927818	57.359423
14481.546879	57.191475
14692.185828	57.023541
14905.888592	56.855608
15122.699734	56.687670
15342.664467	56.527420
15565.828661	56.377674
15792.238852	56.205986
16021.942256	56.056203
16254.986772	55.891830
16491.420999	55.723893
16731.294241	55.555951
16974.656520	55.388005
17221.558584	55.220058
17472.051922	55.052128
17726.188769	54.884193
17984.022122	54.726564
18245.605748	54.576811
18510.994194	54.405124
18780.242805	54.255335
19053.407727	54.083656
19330.545924	53.920416
19611.715189	53.815789
19896.974155	53.815789
20186.382308	53.815789